num crossings	time (s)	maj axis (mm)	min axis (mm)	theta (rad )	slope (V/s)
5955	6457.503315	67.576467	-13.615942	3.630823	67.990428
5957	6459.584889	67.428058	-13.688892	3.636585	69.296738
5959	6461.663002	67.719628	-13.776392	3.637355	69.923740
5961	6463.736770	67.808160	-13.838422	3.633807	69.729654
5965	6467.875299	67.940460	-13.973019	3.623505	67.529324
5967	6469.938603	68.160618	-13.923876	3.625705	71.233954
5969	6471.998795	68.311312	-13.767466	3.636156	68.957172
5973	6476.140499	66.536261	-13.899011	3.633447	62.397125
5975	6478.223633	66.478276	-13.813684	3.618434	60.875829
5977	6480.304115	66.528548	-13.810418	3.615315	61.420700
5979	6482.380958	66.776234	-13.837792	3.613537	62.024143
5981	6484.454956	66.773486	-13.954759	3.611515	63.690448
5983	6486.526411	66.684100	-14.132840	3.609808	62.490563
5985	6488.597264	66.611641	-14.313843	3.606238	66.432882
5987	6490.667197	66.458417	-14.340623	3.604262	63.854626
5989	6492.737090	66.496674	-14.527401	3.601220	64.745890
5991	6494.805105	66.370813	-14.611706	3.599391	65.640545
5993	6496.872381	66.486493	-14.605839	3.598226	64.059114
5995	6498.938115	66.307845	-14.626968	3.598851	66.898079
5999	6503.068248	66.019216	-14.580873	3.597183	64.939547
6001	6505.135310	65.830201	-14.642380	3.600212	65.276478
6003	6507.204514	65.750166	-14.561257	3.599520	67.161005
6005	6509.275125	65.632139	-14.583223	3.594632	61.446647
6009	6513.418082	65.336488	-14.681178	3.584576	61.190618
6011	6515.491361	65.070354	-14.729145	3.578609	63.808602
6013	6517.566783	64.645026	-14.761766	3.575380	63.647979
6015	6519.642971	64.593483	-14.804417	3.576409	65.225962
6017	6521.719496	64.340672	-14.834564	3.575566	61.557354
6019	6523.795406	64.416036	-14.813996	3.574897	62.351990
6023	6527.943294	64.291674	-14.921725	3.572037	62.632028
6025	6530.015868	64.286859	-14.879058	3.568891	60.405214
6027	6532.087656	64.108340	-14.949757	3.566441	61.923660
6029	6534.159191	63.844815	-15.016784	3.563767	61.120601
6031	6536.230001	64.008805	-15.075362	3.561008	58.951202
6033	6538.299998	64.044776	-15.126770	3.557841	60.174083
6035	6540.369464	63.913882	-15.208195	3.554309	60.224558
6037	6542.437410	63.868438	-15.213359	3.552653	62.105211
6041	6546.569840	63.528195	-15.253444	3.550669	63.021855
6043	6548.634678	63.961878	-15.344109	3.550744	61.881795
6045	6550.701313	63.648369	-15.181264	3.555367	58.127330
6049	6554.839548	63.043275	-15.245868	3.547624	59.546607
6051	6556.910151	63.095307	-15.233032	3.545701	55.612256
6053	6558.981469	63.164550	-15.295942	3.539157	56.625485
6057	6563.126878	62.609104	-15.345413	3.531598	57.490588
6059	6565.202133	62.077750	-15.380963	3.528054	57.611335
6061	6567.278053	62.115002	-15.416587	3.528191	60.038989
6063	6569.354396	62.151797	-15.474009	3.527832	59.975895
6065	6571.429293	61.909527	-15.453440	3.526936	59.309317
6069	6575.575760	61.874420	-15.515409	3.523186	58.031981
6071	6577.647557	61.799729	-15.564405	3.519595	56.678597
6073	6579.718035	61.776586	-15.602540	3.517242	57.842343
6077	6583.855894	61.540618	-15.684009	3.512476	59.093885
6079	6585.922777	61.692080	-15.687690	3.511550	57.648852
6081	6587.988698	61.726934	-15.665715	3.513076	57.450093
6085	6592.121064	61.464918	-15.737732	3.511227	55.537754
6087	6594.189331	61.389084	-15.658011	3.512091	54.740641
6089	6596.259474	61.220523	-15.621423	3.510303	52.323142
6093	6600.401381	60.880786	-15.700511	3.499554	52.454000
6095	6602.473283	60.707210	-15.750339	3.494190	54.043005
6097	6604.547089	60.502032	-15.776299	3.489398	53.450078
6099	6606.621858	60.241908	-15.904746	3.484088	53.172031
6101	6608.698042	60.013668	-15.948442	3.484326	54.090425
6103	6610.773657	60.025611	-15.913974	3.485118	53.303460
6107	6614.922604	59.882834	-15.919608	3.482872	55.552957
6109	6616.995092	59.857298	-16.020732	3.479203	53.347829
6111	6619.066323	59.658854	-16.006367	3.478038	52.462142
6115	6623.204724	59.805286	-16.057416	3.473436	52.595699
6117	6625.271696	59.720370	-16.136851	3.471893	52.684818
6119	6627.337795	59.813803	-16.170265	3.470993	52.223925
6121	6629.403199	59.853477	-16.087375	3.471193	55.737121
6125	6633.537563	59.436352	-16.024337	3.473546	51.109150
6127	6635.607380	59.256660	-16.089309	3.469571	47.321029
6129	6637.677944	59.127373	-16.226870	3.459697	47.720295
6133	6641.820507	58.564074	-16.259505	3.450941	50.044095
6135	6643.892873	58.688752	-16.234889	3.450677	50.299400
6137	6645.967538	58.280508	-16.235298	3.450239	51.233040
6139	6648.043231	58.035810	-16.232018	3.447739	50.224011
6141	6650.118922	58.121886	-16.324643	3.445820	52.181738
6143	6652.193886	57.916338	-16.358563	3.446450	50.296801
6145	6654.268224	57.870931	-16.341721	3.446827	50.814543
6149	6658.411543	57.823664	-16.469998	3.440893	48.440144
6151	6660.481327	57.746530	-16.469784	3.437930	49.659098
6153	6662.549777	57.746512	-16.493997	3.435737	51.349259
6155	6664.616542	57.751750	-16.507044	3.435516	49.235691
6159	6668.748397	57.567529	-16.486153	3.434766	47.521209
6161	6670.814965	57.590380	-16.448871	3.436791	47.178497
6163	6672.883899	57.439667	-16.431888	3.435819	46.051585
6167	6677.024416	57.204991	-16.573680	3.425884	45.344816
6169	6679.095280	57.144360	-16.494791	3.422922	45.434099
6171	6681.167317	56.892581	-16.537419	3.415199	47.403474
6173	6683.240488	56.737425	-16.607651	3.413309	46.597578
6175	6685.314982	56.380550	-16.583251	3.409326	46.663337
6177	6687.390459	56.194206	-16.686196	3.408082	45.584126
6179	6689.465920	55.911949	-16.663165	3.406399	48.055767
6181	6691.540450	55.992589	-16.649370	3.409174	47.182279
6185	6695.685236	55.994864	-16.782747	3.403567	46.661672
6187	6697.755523	55.966100	-16.767460	3.400761	49.356372
6189	6699.823943	55.823942	-16.815976	3.399995	46.663932
6193	6703.957102	56.042807	-16.803336	3.397991	45.949583
6195	6706.023159	55.810145	-16.796633	3.400922	45.502664
6197	6708.089756	55.658856	-16.753030	3.401459	44.633562
6201	6712.228111	55.477701	-16.900772	3.395354	42.843559
6203	6714.298809	55.337041	-16.862388	3.390826	39.773332
6205	6716.369557	55.135394	-16.880733	3.386130	43.770643
6209	6720.513339	54.976264	-16.945886	3.376414	42.643508
6211	6722.587262	54.480987	-16.984646	3.371336	43.608563
6213	6724.661979	54.410573	-16.973564	3.371766	43.821901
6215	6726.737610	54.356402	-17.037715	3.369828	45.355484
6217	6728.812375	54.234966	-17.050270	3.369728	42.984948
6221	6732.957019	54.186789	-17.138025	3.367335	43.919113
6223	6735.026895	54.126489	-17.158074	3.364327	45.013346
6225	6737.095619	54.111188	-17.192539	3.363791	42.863556
6229	6741.229144	54.234925	-17.215358	3.360761	42.028542
6231	6743.295216	54.001859	-17.116286	3.363299	41.827501
6233	6745.362178	53.967184	-17.198568	3.362177	41.146673
6235	6747.431316	53.863753	-17.192973	3.360037	39.574103
6237	6749.501259	53.756950	-17.169811	3.357551	38.640065
6239	6751.572288	53.733350	-17.203092	3.352186	38.645490
6241	6753.643298	53.399977	-17.239706	3.345816	38.616303
6245	6757.787690	53.138099	-17.312036	3.335878	38.578110
6247	6759.861613	53.007157	-17.294828	3.335588	41.032683
